[Measurement conditions]
Sample identification,
Comment - 1,"Configuration=Factory configuration, Owner=User-1, Creation date=13/01/2009 10:38:05"
Comment - 2,"Goniometer=PW3050/65 (Theta/2Theta); Minimum step size 2Theta:0.0001; Minimum step size Omega:0.0001"
Comment - 3,"Sample stage=MRD Cradle; Minimum step size Phi:0.01; Minimum step size Psi:0.01; Minimum step size X:0.01; Minimum step size Y:0.01; Minimum step size Z:0.001"
Comment - 4,"Diffractometer system=XPERT-PRO"
Comment - 5,"Measurement program=Richard, Owner=User-1, Creation date=18/11/2022 16:09:50"
Comment - 6,"Batch program=Richard batch, Owner=User-1, Creation date=18/11/2022 16:11:36"
Anode material,Cu
K-Alpha1 wavelength,1.5405980
K-Alpha2 wavelength,1.5444260
Ratio K-Alpha2/K-Alpha1,0.500
Receiving slit,0.76
Monochromator used,NO
Generator voltage, 45
Tube current, 40
File date and time,02/Dec/2022 09:52
Unit cell,
h k l, 0 0 0
Scan axis,2Theta-Omega
Scan range,15.003800004,44.999930836
Scan step size,0.0098477
Omega offset,0.00000000
No. of points, 3046
Scan type,CONTINUOUS
Phi,0.00
Psi,0.00
X,0.00
Y,0.00
Z,9.451
Time per step,149.970
[Scan points]
Angle,Intensity
15.008723860,7423.0
15.018571572,7404.0
15.028419284,7351.0
15.038266996,7545.0
15.048114708,7489.0
15.057962420,7582.0
15.067810132,7607.0
15.077657844,7375.0
15.087505556,7442.0
15.097353268,7474.0
15.107200980,7516.0
15.117048692,7660.0
15.126896404,7486.0
15.136744116,7484.0
15.146591828,7458.0
15.156439540,7402.0
15.166287252,7529.0
15.176134964,7430.0
15.185982676,7472.0
15.195830388,7366.0
15.205678101,7394.0
15.215525813,7271.0
15.225373525,7379.0
15.235221237,7498.0
15.245068949,7531.0
15.254916661,7553.0
15.264764373,7678.0
15.274612085,7607.0
15.284459797,7449.0
15.294307509,7413.0
15.304155221,7367.0
15.314002933,7473.0
15.323850645,7496.0
15.333698357,7292.0
15.343546069,7445.0
15.353393781,7417.0
15.363241493,7292.0
15.373089205,7319.0
15.382936917,7320.0
15.392784629,7279.0
15.402632341,7244.0
15.412480053,7278.0
15.422327765,7442.0
15.432175477,7379.0
15.442023189,7352.0
15.451870901,7302.0
15.461718613,7326.0
15.471566325,7391.0
15.481414037,7437.0
15.491261749,7336.0
15.501109461,7334.0
15.510957173,7334.0
15.520804885,7462.0
15.530652597,7311.0
15.540500309,7155.0
15.550348021,7240.0
15.560195733,7274.0
15.570043445,7367.0
15.579891158,7082.0
15.589738870,7299.0
15.599586582,7416.0
15.609434294,7281.0
15.619282006,7294.0
15.629129718,7198.0
15.638977430,7245.0
15.648825142,7197.0
15.658672854,7196.0
15.668520566,7277.0
15.678368278,7299.0
15.688215990,7250.0
15.698063702,7248.0
15.707911414,7286.0
15.717759126,7236.0
15.727606838,7144.0
15.737454550,7284.0
15.747302262,7316.0
15.757149974,7060.0
15.766997686,7227.0
15.776845398,7145.0
15.786693110,7184.0
15.796540822,7013.0
15.806388534,7174.0
15.816236246,7179.0
15.826083958,7193.0
15.835931670,7232.0
15.845779382,7153.0
15.855627094,7139.0
15.865474806,7242.0
15.875322518,7205.0
15.885170230,7152.0
15.895017942,7287.0
15.904865654,7003.0
15.914713366,7136.0
15.924561078,7226.0
15.934408790,7195.0
15.944256502,7253.0
15.954104215,7031.0
15.963951927,7137.0
15.973799639,6984.0
15.983647351,7174.0
15.993495063,7140.0
16.003342775,7079.0
16.013190487,7098.0
16.023038199,7270.0
16.032885911,7281.0
16.042733623,7065.0
16.052581335,7117.0
16.062429047,7064.0
16.072276759,7234.0
16.082124471,7034.0
16.091972183,7077.0
16.101819895,7065.0
16.111667607,7161.0
16.121515319,7160.0
16.131363031,7125.0
16.141210743,7124.0
16.151058455,6945.0
16.160906167,7179.0
16.170753879,7018.0
16.180601591,7030.0
16.190449303,7180.0
16.200297015,7085.0
16.210144727,7001.0
16.219992439,7036.0
16.229840151,7068.0
16.239687863,7160.0
16.249535575,6920.0
16.259383287,7056.0
16.269230999,7030.0
16.279078711,6920.0
16.288926423,7033.0
16.298774135,6905.0
16.308621847,7032.0
16.318469559,7046.0
16.328317272,6975.0
16.338164984,6988.0
16.348012696,6825.0
16.357860408,7052.0
16.367708120,7058.0
16.377555832,7096.0
16.387403544,6993.0
16.397251256,7016.0
16.407098968,6997.0
16.416946680,6917.0
16.426794392,7068.0
16.436642104,7170.0
16.446489816,6951.0
16.456337528,6768.0
16.466185240,7052.0
16.476032952,7099.0
16.485880664,7077.0
16.495728376,6904.0
16.505576088,7004.0
16.515423800,6932.0
16.525271512,6873.0
16.535119224,6829.0
16.544966936,6810.0
16.554814648,7001.0
16.564662360,6929.0
16.574510072,6889.0
16.584357784,6961.0
16.594205496,6867.0
16.604053208,6859.0
16.613900920,6793.0
16.623748632,6946.0
16.633596344,6855.0
16.643444056,6956.0
16.653291768,6864.0
16.663139480,6936.0
16.672987192,6804.0
16.682834904,7041.0
16.692682616,6998.0
16.702530329,6777.0
16.712378041,6829.0
16.722225753,6910.0
16.732073465,6947.0
16.741921177,7030.0
16.751768889,6782.0
16.761616601,6820.0
16.771464313,6907.0
16.781312025,6951.0
16.791159737,6861.0
16.801007449,6870.0
16.810855161,6929.0
16.820702873,6703.0
16.830550585,7130.0
16.840398297,6721.0
16.850246009,6668.0
16.860093721,6900.0
16.869941433,7060.0
16.879789145,6888.0
16.889636857,6773.0
16.899484569,6863.0
16.909332281,6927.0
16.919179993,6702.0
16.929027705,6705.0
16.938875417,6772.0
16.948723129,6844.0
16.958570841,6789.0
16.968418553,6830.0
16.978266265,6718.0
16.988113977,6872.0
16.997961689,6723.0
17.007809401,6745.0
17.017657113,6859.0
17.027504825,6726.0
17.037352537,6721.0
17.047200249,6815.0
17.057047961,6866.0
17.066895673,6772.0
17.076743386,6870.0
17.086591098,6742.0
17.096438810,6795.0
17.106286522,6806.0
17.116134234,6695.0
17.125981946,6823.0
17.135829658,6716.0
17.145677370,6694.0
17.155525082,6748.0
17.165372794,6738.0
17.175220506,6761.0
17.185068218,6779.0
17.194915930,6815.0
17.204763642,6800.0
17.214611354,6691.0
17.224459066,6683.0
17.234306778,6879.0
17.244154490,6753.0
17.254002202,6766.0
17.263849914,6814.0
17.273697626,6729.0
17.283545338,6722.0
17.293393050,6738.0
17.303240762,6645.0
17.313088474,6671.0
17.322936186,6724.0
17.332783898,6701.0
17.342631610,6756.0
17.352479322,6787.0
17.362327034,6732.0
17.372174746,6685.0
17.382022458,6664.0
17.391870170,6653.0
17.401717882,6783.0
17.411565594,6636.0
17.421413306,6667.0
17.431261018,6977.0
17.441108730,6928.0
17.450956443,6721.0
17.460804155,6764.0
17.470651867,6768.0
17.480499579,6746.0
17.490347291,6759.0
17.500195003,6792.0
17.510042715,6742.0
17.519890427,6838.0
17.529738139,6610.0
17.539585851,6788.0
17.549433563,6805.0
17.559281275,6829.0
17.569128987,6593.0
17.578976699,6672.0
17.588824411,6685.0
17.598672123,6675.0
17.608519835,6866.0
17.618367547,6742.0
17.628215259,6787.0
17.638062971,6785.0
17.647910683,6696.0
17.657758395,6587.0
17.667606107,6744.0
17.677453819,6665.0
17.687301531,6849.0
17.697149243,6673.0
17.706996955,6891.0
17.716844667,6864.0
17.726692379,6871.0
17.736540091,6829.0
17.746387803,6807.0
17.756235515,6643.0
17.766083227,6874.0
17.775930939,6835.0
17.785778651,6749.0
17.795626363,6747.0
17.805474075,6979.0
17.815321787,6749.0
17.825169500,6865.0
17.835017212,6950.0
17.844864924,6769.0
17.854712636,6844.0
17.864560348,6839.0
17.874408060,7015.0
17.884255772,7041.0
17.894103484,6888.0
17.903951196,7121.0
17.913798908,7041.0
17.923646620,6940.0
17.933494332,7133.0
17.943342044,7196.0
17.953189756,7030.0
17.963037468,7213.0
17.972885180,7189.0
17.982732892,7324.0
17.992580604,7365.0
18.002428316,7663.0
18.012276028,7706.0
18.022123740,7668.0
18.031971452,7851.0
18.041819164,7850.0
18.051666876,7947.0
18.061514588,8168.0
18.071362300,8152.0
18.081210012,8274.0
18.091057724,8200.0
18.100905436,8410.0
18.110753148,8362.0
18.120600860,8622.0
18.130448572,8701.0
18.140296284,8883.0
18.150143996,9119.0
18.159991708,9255.0
18.169839420,9432.0
18.179687132,9599.0
18.189534844,9637.0
18.199382557,9695.0
18.209230269,10180.0
18.219077981,10441.0
18.228925693,10801.0
18.238773405,10824.0
18.248621117,11160.0
18.258468829,11519.0
18.268316541,11858.0
18.278164253,12212.0
18.288011965,12465.0
18.297859677,12849.0
18.307707389,13239.0
18.317555101,13369.0
18.327402813,13222.0
18.337250525,12833.0
18.347098237,12192.0
18.356945949,11523.0
18.366793661,11176.0
18.376641373,10427.0
18.386489085,9703.0
18.396336797,9244.0
18.406184509,8935.0
18.416032221,8538.0
18.425879933,8161.0
18.435727645,7977.0
18.445575357,7748.0
18.455423069,7624.0
18.465270781,7652.0
18.475118493,7648.0
18.484966205,7410.0
18.494813917,7332.0
18.504661629,7386.0
18.514509341,7166.0
18.524357053,7244.0
18.534204765,7158.0
18.544052477,7088.0
18.553900189,7097.0
18.563747901,7186.0
18.573595614,7022.0
18.583443326,6907.0
18.593291038,6932.0
18.603138750,6931.0
18.612986462,7009.0
18.622834174,6924.0
18.632681886,7079.0
18.642529598,6883.0
18.652377310,6967.0
18.662225022,6928.0
18.672072734,6773.0
18.681920446,6868.0
18.691768158,7004.0
18.701615870,6954.0
18.711463582,6901.0
18.721311294,7015.0
18.731159006,6936.0
18.741006718,6855.0
18.750854430,6942.0
18.760702142,6837.0
18.770549854,6949.0
18.780397566,6940.0
18.790245278,6849.0
18.800092990,6760.0
18.809940702,6812.0
18.819788414,6910.0
18.829636126,6819.0
18.839483838,6897.0
18.849331550,6704.0
18.859179262,6870.0
18.869026974,6970.0
18.878874686,6902.0
18.888722398,6923.0
18.898570110,6836.0
18.908417822,6831.0
18.918265534,6809.0
18.928113246,6699.0
18.937960958,6852.0
18.947808671,6716.0
18.957656383,6835.0
18.967504095,6869.0
18.977351807,6833.0
18.987199519,6795.0
18.997047231,6696.0
19.006894943,6784.0
19.016742655,6981.0
19.026590367,6701.0
19.036438079,6695.0
19.046285791,6698.0
19.056133503,6659.0
19.065981215,6643.0
19.075828927,6755.0
19.085676639,6773.0
19.095524351,6850.0
19.105372063,6887.0
19.115219775,6738.0
19.125067487,6783.0
19.134915199,6724.0
19.144762911,6778.0
19.154610623,6731.0
19.164458335,6668.0
19.174306047,6694.0
19.184153759,6816.0
19.194001471,6868.0
19.203849183,6685.0
19.213696895,6823.0
19.223544607,6800.0
19.233392319,6731.0
19.243240031,6793.0
19.253087743,6879.0
19.262935455,6780.0
19.272783167,6725.0
19.282630879,6654.0
19.292478591,6736.0
19.302326303,6667.0
19.312174015,6761.0
19.322021728,6699.0
19.331869440,6704.0
19.341717152,6792.0
19.351564864,6724.0
19.361412576,6722.0
19.371260288,6661.0
19.381108000,6751.0
19.390955712,6710.0
19.400803424,6839.0
19.410651136,6652.0
19.420498848,6664.0
19.430346560,6722.0
19.440194272,6619.0
19.450041984,6687.0
19.459889696,6718.0
19.469737408,6638.0
19.479585120,6602.0
19.489432832,6796.0
19.499280544,6649.0
19.509128256,6699.0
19.518975968,6642.0
19.528823680,6554.0
19.538671392,6760.0
19.548519104,6717.0
19.558366816,6676.0
19.568214528,6546.0
19.578062240,6639.0
19.587909952,6739.0
19.597757664,6812.0
19.607605376,6617.0
19.617453088,6562.0
19.627300800,6856.0
19.637148512,6731.0
19.646996224,6583.0
19.656843936,6586.0
19.666691648,6715.0
19.676539360,6716.0
19.686387072,6720.0
19.696234785,6530.0
19.706082497,6674.0
19.715930209,6708.0
19.725777921,6688.0
19.735625633,6449.0
19.745473345,6720.0
19.755321057,6723.0
19.765168769,6674.0
19.775016481,6876.0
19.784864193,6705.0
19.794711905,6687.0
19.804559617,6640.0
19.814407329,6787.0
19.824255041,6686.0
19.834102753,6542.0
19.843950465,6521.0
19.853798177,6662.0
19.863645889,6704.0
19.873493601,6594.0
19.883341313,6578.0
19.893189025,6634.0
19.903036737,6667.0
19.912884449,6518.0
19.922732161,6682.0
19.932579873,6554.0
19.942427585,6746.0
19.952275297,6730.0
19.962123009,6549.0
19.971970721,6727.0
19.981818433,6656.0
19.991666145,6607.0
20.001513857,6734.0
20.011361569,6598.0
20.021209281,6617.0
20.031056993,6547.0
20.040904705,6514.0
20.050752417,6500.0
20.060600129,6532.0
20.070447842,6579.0
20.080295554,6627.0
20.090143266,6603.0
20.099990978,6569.0
20.109838690,6708.0
20.119686402,6652.0
20.129534114,6582.0
20.139381826,6626.0
20.149229538,6687.0
20.159077250,6744.0
20.168924962,6615.0
20.178772674,6590.0
20.188620386,6459.0
20.198468098,6546.0
20.208315810,6631.0
20.218163522,6682.0
20.228011234,6626.0
20.237858946,6539.0
20.247706658,6596.0
20.257554370,6585.0
20.267402082,6665.0
20.277249794,6616.0
20.287097506,6586.0
20.296945218,6596.0
20.306792930,6696.0
20.316640642,6501.0
20.326488354,6660.0
20.336336066,6718.0
20.346183778,6722.0
20.356031490,6742.0
20.365879202,6594.0
20.375726914,6413.0
20.385574626,6689.0
20.395422338,6530.0
20.405270050,6517.0
20.415117762,6535.0
20.424965474,6451.0
20.434813186,6586.0
20.444660899,6626.0
20.454508611,6580.0
20.464356323,6597.0
20.474204035,6602.0
20.484051747,6650.0
20.493899459,6654.0
20.503747171,6464.0
20.513594883,6660.0
20.523442595,6677.0
20.533290307,6471.0
20.543138019,6505.0
20.552985731,6568.0
20.562833443,6587.0
20.572681155,6541.0
20.582528867,6612.0
20.592376579,6632.0
20.602224291,6481.0
20.612072003,6436.0
20.621919715,6549.0
20.631767427,6512.0
20.641615139,6504.0
20.651462851,6442.0
20.661310563,6584.0
20.671158275,6522.0
20.681005987,6430.0
20.690853699,6410.0
20.700701411,6637.0
20.710549123,6459.0
20.720396835,6396.0
20.730244547,6467.0
20.740092259,6556.0
20.749939971,6494.0
20.759787683,6429.0
20.769635395,6535.0
20.779483107,6522.0
20.789330819,6534.0
20.799178531,6533.0
20.809026243,6487.0
20.818873956,6633.0
20.828721668,6517.0
20.838569380,6511.0
20.848417092,6519.0
20.858264804,6407.0
20.868112516,6463.0
20.877960228,6445.0
20.887807940,6447.0
20.897655652,6538.0
20.907503364,6307.0
20.917351076,6359.0
20.927198788,6478.0
20.937046500,6435.0
20.946894212,6392.0
20.956741924,6473.0
20.966589636,6453.0
20.976437348,6667.0
20.986285060,6558.0
20.996132772,6386.0
21.005980484,6418.0
21.015828196,6397.0
21.025675908,6334.0
21.035523620,6480.0
21.045371332,6332.0
21.055219044,6334.0
21.065066756,6457.0
21.074914468,6404.0
21.084762180,6387.0
21.094609892,6495.0
21.104457604,6272.0
21.114305316,6414.0
21.124153028,6376.0
21.134000740,6411.0
21.143848452,6580.0
21.153696164,6426.0
21.163543876,6447.0
21.173391588,6478.0
21.183239300,6345.0
21.193087012,6405.0
21.202934725,6411.0
21.212782437,6508.0
21.222630149,6483.0
21.232477861,6436.0
21.242325573,6365.0
21.252173285,6298.0
21.262020997,6481.0
21.271868709,6371.0
21.281716421,6365.0
21.291564133,6384.0
21.301411845,6387.0
21.311259557,6552.0
21.321107269,6393.0
21.330954981,6514.0
21.340802693,6463.0
21.350650405,6374.0
21.360498117,6363.0
21.370345829,6349.0
21.380193541,6306.0
21.390041253,6483.0
21.399888965,6413.0
21.409736677,6302.0
21.419584389,6304.0
21.429432101,6463.0
21.439279813,6247.0
21.449127525,6236.0
21.458975237,6437.0
21.468822949,6407.0
21.478670661,6358.0
21.488518373,6404.0
21.498366085,6442.0
21.508213797,6452.0
21.518061509,6349.0
21.527909221,6382.0
21.537756933,6274.0
21.547604645,6264.0
21.557452357,6342.0
21.567300069,6386.0
21.577147782,6393.0
21.586995494,6313.0
21.596843206,6367.0
21.606690918,6308.0
21.616538630,6512.0
21.626386342,6377.0
21.636234054,6368.0
21.646081766,6039.0
21.655929478,6319.0
21.665777190,6492.0
21.675624902,6455.0
21.685472614,6500.0
21.695320326,6259.0
21.705168038,6326.0
21.715015750,6389.0
21.724863462,6195.0
21.734711174,6275.0
21.744558886,6357.0
21.754406598,6207.0
21.764254310,6372.0
21.774102022,6220.0
21.783949734,6354.0
21.793797446,6299.0
21.803645158,6218.0
21.813492870,6340.0
21.823340582,6303.0
21.833188294,6332.0
21.843036006,6199.0
21.852883718,6283.0
21.862731430,6189.0
21.872579142,6269.0
21.882426854,6188.0
21.892274566,6197.0
21.902122278,6218.0
21.911969990,6377.0
21.921817702,6411.0
21.931665414,6588.0
21.941513126,6276.0
21.951360839,6108.0
21.961208551,6188.0
21.971056263,6238.0
21.980903975,6183.0
21.990751687,6322.0
22.000599399,6381.0
22.010447111,6373.0
22.020294823,6295.0
22.030142535,6182.0
22.039990247,6314.0
22.049837959,6291.0
22.059685671,6165.0
22.069533383,6200.0
22.079381095,6359.0
22.089228807,6316.0
22.099076519,6394.0
22.108924231,6313.0
22.118771943,6360.0
22.128619655,6148.0
22.138467367,6278.0
22.148315079,6180.0
22.158162791,6317.0
22.168010503,6175.0
22.177858215,6285.0
22.187705927,6343.0
22.197553639,6316.0
22.207401351,6347.0
22.217249063,6331.0
22.227096775,6407.0
22.236944487,6344.0
22.246792199,6427.0
22.256639911,6317.0
22.266487623,6295.0
22.276335335,6248.0
22.286183047,6519.0
22.296030759,6372.0
22.305878471,6268.0
22.315726183,6201.0
22.325573896,6331.0
22.335421608,6352.0
22.345269320,6186.0
22.355117032,6186.0
22.364964744,6269.0
22.374812456,6249.0
22.384660168,6226.0
22.394507880,6103.0
22.404355592,6229.0
22.414203304,6297.0
22.424051016,6195.0
22.433898728,6097.0
22.443746440,6260.0
22.453594152,6374.0
22.463441864,6336.0
22.473289576,6246.0
22.483137288,6334.0
22.492985000,6368.0
22.502832712,6066.0
22.512680424,6158.0
22.522528136,6331.0
22.532375848,6283.0
22.542223560,6284.0
22.552071272,6339.0
22.561918984,6073.0
22.571766696,6273.0
22.581614408,6214.0
22.591462120,6367.0
22.601309832,6171.0
22.611157544,6258.0
22.621005256,6250.0
22.630852968,6278.0
22.640700680,6221.0
22.650548392,6168.0
22.660396104,6287.0
22.670243816,6307.0
22.680091528,6226.0
22.689939240,6170.0
22.699786953,6143.0
22.709634665,6210.0
22.719482377,6263.0
22.729330089,6306.0
22.739177801,6244.0
22.749025513,6248.0
22.758873225,6232.0
22.768720937,6246.0
22.778568649,6330.0
22.788416361,6183.0
22.798264073,6246.0
22.808111785,6272.0
22.817959497,6208.0
22.827807209,6366.0
22.837654921,6213.0
22.847502633,6262.0
22.857350345,6240.0
22.867198057,6196.0
22.877045769,6212.0
22.886893481,6108.0
22.896741193,6106.0
22.906588905,6336.0
22.916436617,6194.0
22.926284329,6227.0
22.936132041,6327.0
22.945979753,6263.0
22.955827465,6297.0
22.965675177,6112.0
22.975522889,6235.0
22.985370601,6294.0
22.995218313,6207.0
23.005066025,5968.0
23.014913737,6171.0
23.024761449,6189.0
23.034609161,6230.0
23.044456873,6199.0
23.054304585,6139.0
23.064152297,6287.0
23.074000010,6137.0
23.083847722,6096.0
23.093695434,6221.0
23.103543146,6224.0
23.113390858,6267.0
23.123238570,6097.0
23.133086282,6161.0
23.142933994,6315.0
23.152781706,6293.0
23.162629418,6190.0
23.172477130,6133.0
23.182324842,6309.0
23.192172554,6240.0
23.202020266,6288.0
23.211867978,6105.0
23.221715690,6244.0
23.231563402,6257.0
23.241411114,6167.0
23.251258826,6059.0
23.261106538,6062.0
23.270954250,6102.0
23.280801962,6113.0
23.290649674,6297.0
23.300497386,6341.0
23.310345098,6277.0
23.320192810,6068.0
23.330040522,6088.0
23.339888234,6198.0
23.349735946,6142.0
23.359583658,6193.0
23.369431370,6188.0
23.379279082,6117.0
23.389126794,6080.0
23.398974506,6261.0
23.408822218,6368.0
23.418669930,6250.0
23.428517642,6181.0
23.438365354,6182.0
23.448213067,6085.0
23.458060779,6220.0
23.467908491,6400.0
23.477756203,6229.0
23.487603915,6123.0
23.497451627,6240.0
23.507299339,6277.0
23.517147051,6212.0
23.526994763,6320.0
23.536842475,6172.0
23.546690187,6126.0
23.556537899,6004.0
23.566385611,6200.0
23.576233323,6165.0
23.586081035,6127.0
23.595928747,6217.0
23.605776459,6283.0
23.615624171,6276.0
23.625471883,6146.0
23.635319595,6229.0
23.645167307,6346.0
23.655015019,6275.0
23.664862731,6171.0
23.674710443,6119.0
23.684558155,6106.0
23.694405867,6416.0
23.704253579,6207.0
23.714101291,6423.0
23.723949003,6361.0
23.733796715,6149.0
23.743644427,6423.0
23.753492139,6240.0
23.763339851,6240.0
23.773187563,6404.0
23.783035275,6267.0
23.792882987,6259.0
23.802730699,6126.0
23.812578411,6227.0
23.822426124,6338.0
23.832273836,6185.0
23.842121548,5907.0
23.851969260,6273.0
23.861816972,6321.0
23.871664684,6195.0
23.881512396,6265.0
23.891360108,6129.0
23.901207820,6148.0
23.911055532,6275.0
23.920903244,6174.0
23.930750956,6142.0
23.940598668,6143.0
23.950446380,6252.0
23.960294092,6311.0
23.970141804,6196.0
23.979989516,6108.0
23.989837228,6292.0
23.999684940,6422.0
24.009532652,6204.0
24.019380364,6259.0
24.029228076,6331.0
24.039075788,6313.0
24.048923500,6082.0
24.058771212,6214.0
24.068618924,6293.0
24.078466636,6266.0
24.088314348,6202.0
24.098162060,6154.0
24.108009772,6262.0
24.117857484,6223.0
24.127705196,6212.0
24.137552908,6181.0
24.147400620,6370.0
24.157248332,6243.0
24.167096044,6133.0
24.176943756,6284.0
24.186791468,6240.0
24.196639181,6296.0
24.206486893,6240.0
24.216334605,6239.0
24.226182317,6404.0
24.236030029,6287.0
24.245877741,6308.0
24.255725453,6274.0
24.265573165,6331.0
24.275420877,6256.0
24.285268589,6005.0
24.295116301,6169.0
24.304964013,6065.0
24.314811725,6137.0
24.324659437,6225.0
24.334507149,6163.0
24.344354861,6264.0
24.354202573,6204.0
24.364050285,6218.0
24.373897997,6290.0
24.383745709,6166.0
24.393593421,6159.0
24.403441133,6066.0
24.413288845,6263.0
24.423136557,6177.0
24.432984269,6298.0
24.442831981,6103.0
24.452679693,6234.0
24.462527405,6167.0
24.472375117,6107.0
24.482222829,6295.0
24.492070541,6271.0
24.501918253,6366.0
24.511765965,6221.0
24.521613677,6114.0
24.531461389,6233.0
24.541309101,6188.0
24.551156813,6148.0
24.561004525,6077.0
24.570852238,6193.0
24.580699950,6249.0
24.590547662,6113.0
24.600395374,6144.0
24.610243086,6156.0
24.620090798,6244.0
24.629938510,6250.0
24.639786222,6274.0
24.649633934,6178.0
24.659481646,6254.0
24.669329358,6268.0
24.679177070,6222.0
24.689024782,6169.0
24.698872494,6082.0
24.708720206,6215.0
24.718567918,6466.0
24.728415630,6278.0
24.738263342,6194.0
24.748111054,6307.0
24.757958766,6282.0
24.767806478,6196.0
24.777654190,6164.0
24.787501902,6293.0
24.797349614,6183.0
24.807197326,6145.0
24.817045038,6194.0
24.826892750,6123.0
24.836740462,6132.0
24.846588174,6274.0
24.856435886,6285.0
24.866283598,6320.0
24.876131310,6168.0
24.885979022,6242.0
24.895826734,6150.0
24.905674446,6231.0
24.915522158,6279.0
24.925369870,6223.0
24.935217582,6127.0
24.945065295,6102.0
24.954913007,6160.0
24.964760719,6346.0
24.974608431,6275.0
24.984456143,6199.0
24.994303855,6253.0
25.004151567,6145.0
25.013999279,6448.0
25.023846991,6244.0
25.033694703,6062.0
25.043542415,6265.0
25.053390127,6249.0
25.063237839,6275.0
25.073085551,6310.0
25.082933263,6086.0
25.092780975,6293.0
25.102628687,6266.0
25.112476399,6307.0
25.122324111,6091.0
25.132171823,6067.0
25.142019535,6255.0
25.151867247,6275.0
25.161714959,6336.0
25.171562671,6197.0
25.181410383,6277.0
25.191258095,6184.0
25.201105807,6203.0
25.210953519,5988.0
25.220801231,6218.0
25.230648943,6355.0
25.240496655,6249.0
25.250344367,6187.0
25.260192079,6216.0
25.270039791,6331.0
25.279887503,6276.0
25.289735215,6211.0
25.299582927,6153.0
25.309430639,6283.0
25.319278352,6266.0
25.329126064,6329.0
25.338973776,6211.0
25.348821488,6204.0
25.358669200,6139.0
25.368516912,6030.0
25.378364624,6223.0
25.388212336,6101.0
25.398060048,6053.0
25.407907760,6195.0
25.417755472,6197.0
25.427603184,6317.0
25.437450896,6091.0
25.447298608,6090.0
25.457146320,6295.0
25.466994032,6266.0
25.476841744,6284.0
25.486689456,6234.0
25.496537168,6188.0
25.506384880,6360.0
25.516232592,6513.0
25.526080304,6091.0
25.535928016,6126.0
25.545775728,6037.0
25.555623440,6348.0
25.565471152,6294.0
25.575318864,6307.0
25.585166576,6317.0
25.595014288,6318.0
25.604862000,6198.0
25.614709712,6136.0
25.624557424,6179.0
25.634405136,6516.0
25.644252848,6324.0
25.654100560,6310.0
25.663948272,6197.0
25.673795984,6227.0
25.683643696,6311.0
25.693491409,6168.0
25.703339121,6180.0
25.713186833,6156.0
25.723034545,6178.0
25.732882257,6017.0
25.742729969,6244.0
25.752577681,6360.0
25.762425393,6171.0
25.772273105,6184.0
25.782120817,6206.0
25.791968529,6148.0
25.801816241,6277.0
25.811663953,6286.0
25.821511665,6082.0
25.831359377,6210.0
25.841207089,6329.0
25.851054801,6111.0
25.860902513,6134.0
25.870750225,6134.0
25.880597937,6189.0
25.890445649,6139.0
25.900293361,6234.0
25.910141073,6125.0
25.919988785,6171.0
25.929836497,6166.0
25.939684209,6126.0
25.949531921,6310.0
25.959379633,6271.0
25.969227345,6150.0
25.979075057,6428.0
25.988922769,6164.0
25.998770481,6186.0
26.008618193,5943.0
26.018465905,6208.0
26.028313617,6187.0
26.038161329,6160.0
26.048009041,6236.0
26.057856753,6186.0
26.067704466,6260.0
26.077552178,6275.0
26.087399890,6197.0
26.097247602,6067.0
26.107095314,6093.0
26.116943026,5982.0
26.126790738,6127.0
26.136638450,6151.0
26.146486162,6330.0
26.156333874,6094.0
26.166181586,6234.0
26.176029298,6117.0
26.185877010,6219.0
26.195724722,6109.0
26.205572434,6228.0
26.215420146,6337.0
26.225267858,6138.0
26.235115570,6070.0
26.244963282,6259.0
26.254810994,6082.0
26.264658706,6260.0
26.274506418,6204.0
26.284354130,6262.0
26.294201842,6178.0
26.304049554,6313.0
26.313897266,6296.0
26.323744978,6360.0
26.333592690,6169.0
26.343440402,6145.0
26.353288114,6249.0
26.363135826,6282.0
26.372983538,6234.0
26.382831250,6287.0
26.392678962,6265.0
26.402526674,6277.0
26.412374386,6271.0
26.422222098,6136.0
26.432069810,6307.0
26.441917523,6192.0
26.451765235,6266.0
26.461612947,6125.0
26.471460659,6310.0
26.481308371,6356.0
26.491156083,6083.0
26.501003795,6148.0
26.510851507,6284.0
26.520699219,6055.0
26.530546931,6304.0
26.540394643,6258.0
26.550242355,6276.0
26.560090067,6322.0
26.569937779,6190.0
26.579785491,6147.0
26.589633203,6152.0
26.599480915,6194.0
26.609328627,6125.0
26.619176339,6248.0
26.629024051,6209.0
26.638871763,6292.0
26.648719475,6283.0
26.658567187,6193.0
26.668414899,6285.0
26.678262611,6285.0
26.688110323,6321.0
26.697958035,6326.0
26.707805747,6233.0
26.717653459,6175.0
26.727501171,6195.0
26.737348883,6382.0
26.747196595,6244.0
26.757044307,6599.0
26.766892019,6531.0
26.776739731,6331.0
26.786587443,6134.0
26.796435155,6397.0
26.806282867,6199.0
26.816130580,6396.0
26.825978292,6194.0
26.835826004,6248.0
26.845673716,6257.0
26.855521428,6254.0
26.865369140,6248.0
26.875216852,6303.0
26.885064564,6320.0
26.894912276,6182.0
26.904759988,6252.0
26.914607700,6364.0
26.924455412,6251.0
26.934303124,6239.0
26.944150836,6232.0
26.953998548,6272.0
26.963846260,6196.0
26.973693972,6269.0
26.983541684,6289.0
26.993389396,6183.0
27.003237108,6345.0
27.013084820,6333.0
27.022932532,6280.0
27.032780244,6134.0
27.042627956,6401.0
27.052475668,6168.0
27.062323380,6292.0
27.072171092,6146.0
27.082018804,6207.0
27.091866516,6164.0
27.101714228,6212.0
27.111561940,6287.0
27.121409652,6237.0
27.131257364,6380.0
27.141105076,6357.0
27.150952788,6138.0
27.160800500,6226.0
27.170648212,6207.0
27.180495924,6257.0
27.190343636,6335.0
27.200191349,6090.0
27.210039061,6159.0
27.219886773,6169.0
27.229734485,6474.0
27.239582197,6269.0
27.249429909,6181.0
27.259277621,6136.0
27.269125333,6247.0
27.278973045,6230.0
27.288820757,6224.0
27.298668469,6136.0
27.308516181,6242.0
27.318363893,6346.0
27.328211605,6234.0
27.338059317,6095.0
27.347907029,6041.0
27.357754741,6178.0
27.367602453,6278.0
27.377450165,6287.0
27.387297877,6105.0
27.397145589,6261.0
27.406993301,6264.0
27.416841013,6251.0
27.426688725,6209.0
27.436536437,6267.0
27.446384149,6236.0
27.456231861,6209.0
27.466079573,6109.0
27.475927285,6225.0
27.485774997,6271.0
27.495622709,6283.0
27.505470421,6191.0
27.515318133,6116.0
27.525165845,6100.0
27.535013557,6214.0
27.544861269,6483.0
27.554708981,6157.0
27.564556693,6199.0
27.574404406,6142.0
27.584252118,6140.0
27.594099830,6151.0
27.603947542,6229.0
27.613795254,6108.0
27.623642966,6131.0
27.633490678,6207.0
27.643338390,6257.0
27.653186102,6325.0
27.663033814,6189.0
27.672881526,6367.0
27.682729238,6332.0
27.692576950,6404.0
27.702424662,6314.0
27.712272374,6087.0
27.722120086,6361.0
27.731967798,6272.0
27.741815510,6157.0
27.751663222,6132.0
27.761510934,6223.0
27.771358646,6171.0
27.781206358,6201.0
27.791054070,6093.0
27.800901782,6294.0
27.810749494,6219.0
27.820597206,6154.0
27.830444918,6245.0
27.840292630,6397.0
27.850140342,6319.0
27.859988054,6327.0
27.869835766,6273.0
27.879683478,6230.0
27.889531190,6280.0
27.899378902,6094.0
27.909226614,6187.0
27.919074326,6303.0
27.928922038,6249.0
27.938769750,6274.0
27.948617463,6150.0
27.958465175,6240.0
27.968312887,6213.0
27.978160599,6169.0
27.988008311,6217.0
27.997856023,6316.0
28.007703735,6228.0
28.017551447,6301.0
28.027399159,6097.0
28.037246871,6201.0
28.047094583,6197.0
28.056942295,6153.0
28.066790007,6151.0
28.076637719,6007.0
28.086485431,6194.0
28.096333143,6331.0
28.106180855,6198.0
28.116028567,6302.0
28.125876279,6268.0
28.135723991,6209.0
28.145571703,6273.0
28.155419415,6172.0
28.165267127,6261.0
28.175114839,6204.0
28.184962551,6218.0
28.194810263,6117.0
28.204657975,6282.0
28.214505687,6211.0
28.224353399,6341.0
28.234201111,6351.0
28.244048823,6267.0
28.253896535,6130.0
28.263744247,6366.0
28.273591959,6400.0
28.283439671,6279.0
28.293287383,6265.0
28.303135095,6099.0
28.312982807,6251.0
28.322830520,6427.0
28.332678232,6164.0
28.342525944,6186.0
28.352373656,6219.0
28.362221368,6114.0
28.372069080,6127.0
28.381916792,6222.0
28.391764504,6287.0
28.401612216,6194.0
28.411459928,6305.0
28.421307640,6435.0
28.431155352,6450.0
28.441003064,6097.0
28.450850776,6293.0
28.460698488,6385.0
28.470546200,6317.0
28.480393912,6490.0
28.490241624,6423.0
28.500089336,6250.0
28.509937048,6304.0
28.519784760,6114.0
28.529632472,6227.0
28.539480184,6352.0
28.549327896,6292.0
28.559175608,6287.0
28.569023320,6448.0
28.578871032,6383.0
28.588718744,6333.0
28.598566456,6311.0
28.608414168,6358.0
28.618261880,6270.0
28.628109592,6255.0
28.637957304,6335.0
28.647805016,6352.0
28.657652728,6381.0
28.667500440,6308.0
28.677348152,6448.0
28.687195864,6231.0
28.697043577,6273.0
28.706891289,6363.0
28.716739001,6359.0
28.726586713,6366.0
28.736434425,6334.0
28.746282137,6465.0
28.756129849,6538.0
28.765977561,6468.0
28.775825273,6473.0
28.785672985,6513.0
28.795520697,6354.0
28.805368409,6544.0
28.815216121,6527.0
28.825063833,6668.0
28.834911545,6433.0
28.844759257,6473.0
28.854606969,6605.0
28.864454681,6554.0
28.874302393,6486.0
28.884150105,6517.0
28.893997817,6672.0
28.903845529,6613.0
28.913693241,6700.0
28.923540953,6668.0
28.933388665,6556.0
28.943236377,6677.0
28.953084089,6568.0
28.962931801,6672.0
28.972779513,6867.0
28.982627225,6786.0
28.992474937,6623.0
29.002322649,6653.0
29.012170361,6580.0
29.022018073,6800.0
29.031865785,6738.0
29.041713497,6709.0
29.051561209,6870.0
29.061408921,6788.0
29.071256634,6637.0
29.081104346,6771.0
29.090952058,6717.0
29.100799770,6952.0
29.110647482,6938.0
29.120495194,6968.0
29.130342906,6767.0
29.140190618,6893.0
29.150038330,6821.0
29.159886042,6931.0
29.169733754,6896.0
29.179581466,6813.0
29.189429178,6825.0
29.199276890,6872.0
29.209124602,6983.0
29.218972314,7038.0
29.228820026,7143.0
29.238667738,7109.0
29.248515450,7202.0
29.258363162,7042.0
29.268210874,7177.0
29.278058586,7194.0
29.287906298,7089.0
29.297754010,7018.0
29.307601722,7116.0
29.317449434,7304.0
29.327297146,7220.0
29.337144858,7411.0
29.346992570,7517.0
29.356840282,7575.0
29.366687994,7702.0
29.376535706,7726.0
29.386383418,7836.0
29.396231130,7811.0
29.406078842,7902.0
29.415926554,8008.0
29.425774266,8068.0
29.435621978,8173.0
29.445469691,8410.0
29.455317403,8400.0
29.465165115,8888.0
29.475012827,8674.0
29.484860539,8964.0
29.494708251,9171.0
29.504555963,9417.0
29.514403675,9758.0
29.524251387,10125.0
29.534099099,10206.0
29.543946811,10493.0
29.553794523,10731.0
29.563642235,11183.0
29.573489947,11725.0
29.583337659,12150.0
29.593185371,12484.0
29.603033083,13201.0
29.612880795,13727.0
29.622728507,14119.0
29.632576219,15004.0
29.642423931,15695.0
29.652271643,16583.0
29.662119355,17517.0
29.671967067,18331.0
29.681814779,19598.0
29.691662491,20558.0
29.701510203,21772.0
29.711357915,23245.0
29.721205627,24778.0
29.731053339,25813.0
29.740901051,27939.0
29.750748763,29440.0
29.760596475,31132.0
29.770444187,32964.0
29.780291899,35163.0
29.790139611,36980.0
29.799987323,38935.0
29.809835035,40792.0
29.819682748,42467.0
29.829530460,43945.0
29.839378172,45434.0
29.849225884,45989.0
29.859073596,46003.0
29.868921308,45640.0
29.878769020,44140.0
29.888616732,42173.0
29.898464444,40207.0
29.908312156,38376.0
29.918159868,35914.0
29.928007580,33998.0
29.937855292,31843.0
29.947703004,29507.0
29.957550716,27591.0
29.967398428,25182.0
29.977246140,23250.0
29.987093852,21278.0
29.996941564,19310.0
30.006789276,17859.0
30.016636988,16790.0
30.026484700,15797.0
30.036332412,14549.0
30.046180124,13865.0
30.056027836,12972.0
30.065875548,12140.0
30.075723260,11713.0
30.085570972,11380.0
30.095418684,10905.0
30.105266396,10562.0
30.115114108,10180.0
30.124961820,10013.0
30.134809532,9658.0
30.144657244,9311.0
30.154504956,9203.0
30.164352668,8821.0
30.174200380,8665.0
30.184048092,8644.0
30.193895805,8585.0
30.203743517,8296.0
30.213591229,8246.0
30.223438941,8043.0
30.233286653,7949.0
30.243134365,7700.0
30.252982077,7776.0
30.262829789,7663.0
30.272677501,7470.0
30.282525213,7703.0
30.292372925,7305.0
30.302220637,7539.0
30.312068349,7404.0
30.321916061,7224.0
30.331763773,7210.0
30.341611485,7205.0
30.351459197,7263.0
30.361306909,7178.0
30.371154621,7057.0
30.381002333,7119.0
30.390850045,7056.0
30.400697757,6972.0
30.410545469,6891.0
30.420393181,6833.0
30.430240893,6798.0
30.440088605,6763.0
30.449936317,6964.0
30.459784029,6815.0
30.469631741,6908.0
30.479479453,6855.0
30.489327165,6737.0
30.499174877,6634.0
30.509022589,6756.0
30.518870301,6762.0
30.528718013,6868.0
30.538565725,6679.0
30.548413437,6789.0
30.558261149,6573.0
30.568108862,6647.0
30.577956574,6673.0
30.587804286,6554.0
30.597651998,6673.0
30.607499710,6506.0
30.617347422,6521.0
30.627195134,6675.0
30.637042846,6605.0
30.646890558,6732.0
30.656738270,6556.0
30.666585982,6723.0
30.676433694,6672.0
30.686281406,6606.0
30.696129118,6426.0
30.705976830,6526.0
30.715824542,6560.0
30.725672254,6580.0
30.735519966,6520.0
30.745367678,6563.0
30.755215390,6526.0
30.765063102,6459.0
30.774910814,6548.0
30.784758526,6607.0
30.794606238,6333.0
30.804453950,6508.0
30.814301662,6635.0
30.824149374,6477.0
30.833997086,6642.0
30.843844798,6373.0
30.853692510,6476.0
30.863540222,6499.0
30.873387934,6364.0
30.883235646,6428.0
30.893083358,6422.0
30.902931070,6561.0
30.912778782,6393.0
30.922626494,6366.0
30.932474206,6456.0
30.942321919,6572.0
30.952169631,6548.0
30.962017343,6396.0
30.971865055,6468.0
30.981712767,6629.0
30.991560479,6471.0
31.001408191,6457.0
31.011255903,6415.0
31.021103615,6470.0
31.030951327,6490.0
31.040799039,6473.0
31.050646751,6393.0
31.060494463,6281.0
31.070342175,6440.0
31.080189887,6397.0
31.090037599,6417.0
31.099885311,6351.0
31.109733023,6387.0
31.119580735,6351.0
31.129428447,6350.0
31.139276159,6279.0
31.149123871,6322.0
31.158971583,6256.0
31.168819295,6362.0
31.178667007,6391.0
31.188514719,6441.0
31.198362431,6433.0
31.208210143,6486.0
31.218057855,6225.0
31.227905567,6345.0
31.237753279,6197.0
31.247600991,6373.0
31.257448703,6279.0
31.267296415,6350.0
31.277144127,6456.0
31.286991839,6473.0
31.296839551,6365.0
31.306687263,6328.0
31.316534976,6512.0
31.326382688,6412.0
31.336230400,6365.0
31.346078112,6445.0
31.355925824,6509.0
31.365773536,6419.0
31.375621248,6353.0
31.385468960,6438.0
31.395316672,6322.0
31.405164384,6405.0
31.415012096,6334.0
31.424859808,6473.0
31.434707520,6383.0
31.444555232,6244.0
31.454402944,6379.0
31.464250656,6366.0
31.474098368,6345.0
31.483946080,6497.0
31.493793792,6549.0
31.503641504,6390.0
31.513489216,6314.0
31.523336928,6200.0
31.533184640,6176.0
31.543032352,6238.0
31.552880064,6377.0
31.562727776,6371.0
31.572575488,6195.0
31.582423200,6193.0
31.592270912,6372.0
31.602118624,6452.0
31.611966336,6402.0
31.621814048,6446.0
31.631661760,6400.0
31.641509472,6450.0
31.651357184,6502.0
31.661204896,6439.0
31.671052608,6192.0
31.680900320,6465.0
31.690748033,6316.0
31.700595745,6078.0
31.710443457,6266.0
31.720291169,6291.0
31.730138881,6387.0
31.739986593,6151.0
31.749834305,6259.0
31.759682017,6323.0
31.769529729,6226.0
31.779377441,6141.0
31.789225153,6266.0
31.799072865,6447.0
31.808920577,6389.0
31.818768289,6204.0
31.828616001,6364.0
31.838463713,6314.0
31.848311425,6293.0
31.858159137,6167.0
31.868006849,6329.0
31.877854561,6363.0
31.887702273,6365.0
31.897549985,6253.0
31.907397697,6176.0
31.917245409,6161.0
31.927093121,6318.0
31.936940833,6165.0
31.946788545,6250.0
31.956636257,6308.0
31.966483969,6106.0
31.976331681,6385.0
31.986179393,6273.0
31.996027105,6197.0
32.005874817,6199.0
32.015722529,6234.0
32.025570241,6318.0
32.035417953,6240.0
32.045265665,6416.0
32.055113377,6364.0
32.064961090,6300.0
32.074808802,6279.0
32.084656514,6271.0
32.094504226,6188.0
32.104351938,6268.0
32.114199650,6341.0
32.124047362,6292.0
32.133895074,6350.0
32.143742786,6417.0
32.153590498,6390.0
32.163438210,6236.0
32.173285922,6379.0
32.183133634,6247.0
32.192981346,6273.0
32.202829058,6455.0
32.212676770,6325.0
32.222524482,6157.0
32.232372194,6328.0
32.242219906,6223.0
32.252067618,6270.0
32.261915330,6409.0
32.271763042,6348.0
32.281610754,6348.0
32.291458466,6181.0
32.301306178,6203.0
32.311153890,6258.0
32.321001602,6378.0
32.330849314,6243.0
32.340697026,6348.0
32.350544738,6245.0
32.360392450,6471.0
32.370240162,6424.0
32.380087874,6210.0
32.389935586,6280.0
32.399783298,6250.0
32.409631010,6270.0
32.419478722,6313.0
32.429326434,6337.0
32.439174147,6232.0
32.449021859,6311.0
32.458869571,6271.0
32.468717283,6326.0
32.478564995,6221.0
32.488412707,6342.0
32.498260419,6228.0
32.508108131,6218.0
32.517955843,6377.0
32.527803555,6216.0
32.537651267,6346.0
32.547498979,6160.0
32.557346691,6251.0
32.567194403,6297.0
32.577042115,6278.0
32.586889827,6337.0
32.596737539,6266.0
32.606585251,6298.0
32.616432963,6279.0
32.626280675,6297.0
32.636128387,6226.0
32.645976099,6327.0
32.655823811,6328.0
32.665671523,6318.0
32.675519235,6277.0
32.685366947,6349.0
32.695214659,6276.0
32.705062371,6272.0
32.714910083,6226.0
32.724757795,6310.0
32.734605507,6240.0
32.744453219,6370.0
32.754300931,6262.0
32.764148643,6284.0
32.773996355,6426.0
32.783844067,6369.0
32.793691779,6270.0
32.803539491,6295.0
32.813387204,6255.0
32.823234916,6403.0
32.833082628,6412.0
32.842930340,6346.0
32.852778052,6200.0
32.862625764,6447.0
32.872473476,6476.0
32.882321188,6376.0
32.892168900,6613.0
32.902016612,6519.0
32.911864324,6653.0
32.921712036,6656.0
32.931559748,7234.0
32.941407460,8298.0
32.951255172,10607.0
32.961102884,13122.0
32.970950596,12680.0
32.980798308,10207.0
32.990646020,8079.0
33.000493732,7188.0
33.010341444,7171.0
33.020189156,7392.0
33.030036868,8252.0
33.039884580,9652.0
33.049732292,10607.0
33.059580004,9536.0
33.069427716,8089.0
33.079275428,7323.0
33.089123140,7266.0
33.098970852,7082.0
33.108818564,7173.0
33.118666276,7060.0
33.128513988,7406.0
33.138361700,7413.0
33.148209412,7698.0
33.158057124,7871.0
33.167904836,8227.0
33.177752548,8550.0
33.187600260,8867.0
33.197447973,9394.0
33.207295685,9708.0
33.217143397,10094.0
33.226991109,11114.0
33.236838821,11657.0
33.246686533,12598.0
33.256534245,13458.0
33.266381957,14754.0
33.276229669,16005.0
33.286077381,16926.0
33.295925093,17598.0
33.305772805,17536.0
33.315620517,17164.0
33.325468229,16300.0
33.335315941,15265.0
33.345163653,14369.0
33.355011365,13635.0
33.364859077,13298.0
33.374706789,12951.0
33.384554501,12865.0
33.394402213,12213.0
33.404249925,11494.0
33.414097637,10582.0
33.423945349,9722.0
33.433793061,8876.0
33.443640773,8469.0
33.453488485,7853.0
33.463336197,7460.0
33.473183909,7243.0
33.483031621,7041.0
33.492879333,6993.0
33.502727045,6797.0
33.512574757,6692.0
33.522422469,6646.0
33.532270181,6425.0
33.542117893,6557.0
33.551965605,6255.0
33.561813317,6284.0
33.571661030,6348.0
33.581508742,6295.0
33.591356454,6290.0
33.601204166,6406.0
33.611051878,6085.0
33.620899590,6407.0
33.630747302,6204.0
33.640595014,6224.0
33.650442726,6128.0
33.660290438,6209.0
33.670138150,6229.0
33.679985862,6340.0
33.689833574,6112.0
33.699681286,6020.0
33.709528998,6170.0
33.719376710,6253.0
33.729224422,6049.0
33.739072134,6056.0
33.748919846,6062.0
33.758767558,5846.0
33.768615270,6068.0
33.778462982,6092.0
33.788310694,6002.0
33.798158406,6012.0
33.808006118,6034.0
33.817853830,6004.0
33.827701542,6016.0
33.837549254,6070.0
33.847396966,5839.0
33.857244678,5869.0
33.867092390,5903.0
33.876940102,5979.0
33.886787814,5897.0
33.896635526,5905.0
33.906483238,5945.0
33.916330950,6074.0
33.926178662,5963.0
33.936026374,5927.0
33.945874087,6028.0
33.955721799,6001.0
33.965569511,5992.0
33.975417223,6057.0
33.985264935,6097.0
33.995112647,5866.0
34.004960359,6044.0
34.014808071,5807.0
34.024655783,5912.0
34.034503495,5857.0
34.044351207,5911.0
34.054198919,6006.0
34.064046631,5835.0
34.073894343,5821.0
34.083742055,6074.0
34.093589767,5893.0
34.103437479,5881.0
34.113285191,5917.0
34.123132903,5865.0
34.132980615,5810.0
34.142828327,5868.0
34.152676039,5774.0
34.162523751,5880.0
34.172371463,5848.0
34.182219175,5923.0
34.192066887,5940.0
34.201914599,5622.0
34.211762311,5776.0
34.221610023,5943.0
34.231457735,5873.0
34.241305447,5914.0
34.251153159,5737.0
34.261000871,5827.0
34.270848583,5841.0
34.280696295,5798.0
34.290544007,5720.0
34.300391719,5802.0
34.310239431,5794.0
34.320087144,5730.0
34.329934856,5834.0
34.339782568,5793.0
34.349630280,5724.0
34.359477992,5761.0
34.369325704,5777.0
34.379173416,5940.0
34.389021128,5880.0
34.398868840,5766.0
34.408716552,5829.0
34.418564264,5876.0
34.428411976,5839.0
34.438259688,5720.0
34.448107400,5916.0
34.457955112,5837.0
34.467802824,5801.0
34.477650536,5760.0
34.487498248,5787.0
34.497345960,5740.0
34.507193672,5787.0
34.517041384,5737.0
34.526889096,5753.0
34.536736808,5782.0
34.546584520,5676.0
34.556432232,5671.0
34.566279944,5725.0
34.576127656,5760.0
34.585975368,5747.0
34.595823080,5662.0
34.605670792,5720.0
34.615518504,5862.0
34.625366216,5748.0
34.635213928,5747.0
34.645061640,5558.0
34.654909352,5808.0
34.664757064,5664.0
34.674604776,5666.0
34.684452488,5711.0
34.694300201,5711.0
34.704147913,5709.0
34.713995625,5540.0
34.723843337,5601.0
34.733691049,5570.0
34.743538761,5462.0
34.753386473,5619.0
34.763234185,5682.0
34.773081897,5734.0
34.782929609,5647.0
34.792777321,5513.0
34.802625033,5511.0
34.812472745,5595.0
34.822320457,5677.0
34.832168169,5567.0
34.842015881,5469.0
34.851863593,5670.0
34.861711305,5656.0
34.871559017,5545.0
34.881406729,5655.0
34.891254441,5618.0
34.901102153,5392.0
34.910949865,5666.0
34.920797577,5529.0
34.930645289,5582.0
34.940493001,5593.0
34.950340713,5603.0
34.960188425,5622.0
34.970036137,5538.0
34.979883849,5655.0
34.989731561,5637.0
34.999579273,5670.0
35.009426985,5652.0
35.019274697,5445.0
35.029122409,5603.0
35.038970121,5595.0
35.048817833,5637.0
35.058665545,5622.0
35.068513258,5573.0
35.078360970,5601.0
35.088208682,5615.0
35.098056394,5494.0
35.107904106,5458.0
35.117751818,5462.0
35.127599530,5297.0
35.137447242,5487.0
35.147294954,5509.0
35.157142666,5542.0
35.166990378,5524.0
35.176838090,5523.0
35.186685802,5527.0
35.196533514,5568.0
35.206381226,5460.0
35.216228938,5450.0
35.226076650,5548.0
35.235924362,5590.0
35.245772074,5412.0
35.255619786,5396.0
35.265467498,5442.0
35.275315210,5499.0
35.285162922,5585.0
35.295010634,5402.0
35.304858346,5352.0
35.314706058,5560.0
35.324553770,5467.0
35.334401482,5388.0
35.344249194,5456.0
35.354096906,5333.0
35.363944618,5411.0
35.373792330,5461.0
35.383640042,5255.0
35.393487754,5297.0
35.403335466,5468.0
35.413183178,5285.0
35.423030890,5269.0
35.432878602,5464.0
35.442726315,5420.0
35.452574027,5430.0
35.462421739,5301.0
35.472269451,5321.0
35.482117163,5392.0
35.491964875,5272.0
35.501812587,5356.0
35.511660299,5310.0
35.521508011,5177.0
35.531355723,5427.0
35.541203435,5285.0
35.551051147,5314.0
35.560898859,5208.0
35.570746571,5256.0
35.580594283,5369.0
35.590441995,5348.0
35.600289707,5310.0
35.610137419,5416.0
35.619985131,5295.0
35.629832843,5443.0
35.639680555,5422.0
35.649528267,5462.0
35.659375979,5369.0
35.669223691,5398.0
35.679071403,5373.0
35.688919115,5211.0
35.698766827,5227.0
35.708614539,5380.0
35.718462251,5256.0
35.728309963,5252.0
35.738157675,5440.0
35.748005387,5305.0
35.757853099,5310.0
35.767700811,5200.0
35.777548523,5251.0
35.787396235,5215.0
35.797243947,5169.0
35.807091659,5233.0
35.816939372,5264.0
35.826787084,5424.0
35.836634796,5349.0
35.846482508,5300.0
35.856330220,5350.0
35.866177932,5262.0
35.876025644,5367.0
35.885873356,5370.0
35.895721068,5333.0
35.905568780,5150.0
35.915416492,5243.0
35.925264204,5305.0
35.935111916,5207.0
35.944959628,5276.0
35.954807340,5345.0
35.964655052,5363.0
35.974502764,5304.0
35.984350476,5192.0
35.994198188,5290.0
36.004045900,5184.0
36.013893612,5427.0
36.023741324,5261.0
36.033589036,5270.0
36.043436748,5309.0
36.053284460,5328.0
36.063132172,5106.0
36.072979884,5230.0
36.082827596,5224.0
36.092675308,5305.0
36.102523020,5235.0
36.112370732,5272.0
36.122218444,5218.0
36.132066156,5333.0
36.141913868,5165.0
36.151761580,5335.0
36.161609292,5362.0
36.171457004,5328.0
36.181304716,5117.0
36.191152429,5276.0
36.201000141,5186.0
36.210847853,5219.0
36.220695565,5306.0
36.230543277,5210.0
36.240390989,5166.0
36.250238701,5155.0
36.260086413,5297.0
36.269934125,5289.0
36.279781837,5159.0
36.289629549,5263.0
36.299477261,5349.0
36.309324973,5284.0
36.319172685,5256.0
36.329020397,5218.0
36.338868109,5234.0
36.348715821,5225.0
36.358563533,5358.0
36.368411245,5353.0
36.378258957,5213.0
36.388106669,5259.0
36.397954381,5231.0
36.407802093,5346.0
36.417649805,5224.0
36.427497517,5236.0
36.437345229,5427.0
36.447192941,5294.0
36.457040653,5250.0
36.466888365,5218.0
36.476736077,5383.0
36.486583789,5333.0
36.496431501,5438.0
36.506279213,5379.0
36.516126925,5419.0
36.525974637,5333.0
36.535822349,5351.0
36.545670061,5365.0
36.555517773,5466.0
36.565365486,5499.0
36.575213198,5491.0
36.585060910,5476.0
36.594908622,5639.0
36.604756334,5556.0
36.614604046,5562.0
36.624451758,5636.0
36.634299470,5677.0
36.644147182,5694.0
36.653994894,5803.0
36.663842606,5741.0
36.673690318,5751.0
36.683538030,5863.0
36.693385742,5853.0
36.703233454,5979.0
36.713081166,5842.0
36.722928878,5863.0
36.732776590,6070.0
36.742624302,6210.0
36.752472014,6206.0
36.762319726,6268.0
36.772167438,6288.0
36.782015150,6391.0
36.791862862,6388.0
36.801710574,6447.0
36.811558286,6503.0
36.821405998,6800.0
36.831253710,6889.0
36.841101422,6798.0
36.850949134,6881.0
36.860796846,7029.0
36.870644558,7113.0
36.880492270,7137.0
36.890339982,7396.0
36.900187694,7360.0
36.910035406,7765.0
36.919883118,7951.0
36.929730830,8182.0
36.939578543,8343.0
36.949426255,8346.0
36.959273967,8800.0
36.969121679,8723.0
36.978969391,9172.0
36.988817103,9336.0
36.998664815,9464.0
37.008512527,9651.0
37.018360239,9988.0
37.028207951,10213.0
37.038055663,10597.0
37.047903375,10963.0
37.057751087,11309.0
37.067598799,11781.0
37.077446511,12417.0
37.087294223,12814.0
37.097141935,13361.0
37.106989647,13751.0
37.116837359,14303.0
37.126685071,14346.0
37.136532783,14630.0
37.146380495,14184.0
37.156228207,13959.0
37.166075919,13428.0
37.175923631,12733.0
37.185771343,12122.0
37.195619055,11631.0
37.205466767,11497.0
37.215314479,11092.0
37.225162191,10679.0
37.235009903,10455.0
37.244857615,9864.0
37.254705327,9219.0
37.264553039,8954.0
37.274400751,8576.0
37.284248463,7803.0
37.294096175,7359.0
37.303943887,7150.0
37.313791600,6878.0
37.323639312,6361.0
37.333487024,6504.0
37.343334736,6259.0
37.353182448,6100.0
37.363030160,5905.0
37.372877872,5770.0
37.382725584,5689.0
37.392573296,5570.0
37.402421008,5555.0
37.412268720,5566.0
37.422116432,5422.0
37.431964144,5277.0
37.441811856,5402.0
37.451659568,5143.0
37.461507280,5302.0
37.471354992,5289.0
37.481202704,5154.0
37.491050416,5163.0
37.500898128,5178.0
37.510745840,5090.0
37.520593552,5013.0
37.530441264,5103.0
37.540288976,4972.0
37.550136688,5045.0
37.559984400,4937.0
37.569832112,4990.0
37.579679824,5007.0
37.589527536,4940.0
37.599375248,4861.0
37.609222960,4855.0
37.619070672,4717.0
37.628918384,4922.0
37.638766096,4758.0
37.648613808,4802.0
37.658461520,4809.0
37.668309232,4738.0
37.678156944,4671.0
37.688004657,4715.0
37.697852369,4653.0
37.707700081,4724.0
37.717547793,4568.0
37.727395505,4713.0
37.737243217,4580.0
37.747090929,4697.0
37.756938641,4671.0
37.766786353,4716.0
37.776634065,4681.0
37.786481777,4632.0
37.796329489,4623.0
37.806177201,4662.0
37.816024913,4490.0
37.825872625,4477.0
37.835720337,4602.0
37.845568049,4673.0
37.855415761,4483.0
37.865263473,4631.0
37.875111185,4642.0
37.884958897,4463.0
37.894806609,4621.0
37.904654321,4415.0
37.914502033,4366.0
37.924349745,4509.0
37.934197457,4386.0
37.944045169,4540.0
37.953892881,4529.0
37.963740593,4495.0
37.973588305,4563.0
37.983436017,4493.0
37.993283729,4499.0
38.003131441,4474.0
38.012979153,4526.0
38.022826865,4407.0
38.032674577,4367.0
38.042522289,4507.0
38.052370001,4478.0
38.062217714,4383.0
38.072065426,4550.0
38.081913138,4401.0
38.091760850,4452.0
38.101608562,4491.0
38.111456274,4422.0
38.121303986,4354.0
38.131151698,4442.0
38.140999410,4283.0
38.150847122,4325.0
38.160694834,4444.0
38.170542546,4454.0
38.180390258,4438.0
38.190237970,4519.0
38.200085682,4378.0
38.209933394,4511.0
38.219781106,4509.0
38.229628818,4333.0
38.239476530,4420.0
38.249324242,4376.0
38.259171954,4379.0
38.269019666,4378.0
38.278867378,4441.0
38.288715090,4361.0
38.298562802,4528.0
38.308410514,4415.0
38.318258226,4443.0
38.328105938,4384.0
38.337953650,4362.0
38.347801362,4450.0
38.357649074,4459.0
38.367496786,4272.0
38.377344498,4331.0
38.387192210,4388.0
38.397039922,4326.0
38.406887634,4412.0
38.416735346,4254.0
38.426583058,4236.0
38.436430771,4237.0
38.446278483,4250.0
38.456126195,4397.0
38.465973907,4159.0
38.475821619,4269.0
38.485669331,4331.0
38.495517043,4291.0
38.505364755,4288.0
38.515212467,4244.0
38.525060179,4250.0
38.534907891,4214.0
38.544755603,4206.0
38.554603315,4129.0
38.564451027,4185.0
38.574298739,4250.0
38.584146451,4248.0
38.593994163,4230.0
38.603841875,4159.0
38.613689587,4134.0
38.623537299,4131.0
38.633385011,4238.0
38.643232723,4182.0
38.653080435,4363.0
38.662928147,3980.0
38.672775859,4182.0
38.682623571,4164.0
38.692471283,4164.0
38.702318995,4120.0
38.712166707,4213.0
38.722014419,4214.0
38.731862131,4137.0
38.741709843,4037.0
38.751557555,4133.0
38.761405267,4070.0
38.771252979,4096.0
38.781100691,4264.0
38.790948403,4147.0
38.800796115,4159.0
38.810643828,4192.0
38.820491540,4101.0
38.830339252,4234.0
38.840186964,4066.0
38.850034676,4180.0
38.859882388,4004.0
38.869730100,4014.0
38.879577812,4014.0
38.889425524,4032.0
38.899273236,3974.0
38.909120948,4088.0
38.918968660,4120.0
38.928816372,3988.0
38.938664084,3978.0
38.948511796,4044.0
38.958359508,4118.0
38.968207220,3979.0
38.978054932,4033.0
38.987902644,4094.0
38.997750356,4081.0
39.007598068,4139.0
39.017445780,4068.0
39.027293492,4003.0
39.037141204,3957.0
39.046988916,4121.0
39.056836628,4065.0
39.066684340,4040.0
39.076532052,4065.0
39.086379764,4074.0
39.096227476,3997.0
39.106075188,4096.0
39.115922900,4081.0
39.125770612,4136.0
39.135618324,4013.0
39.145466036,3958.0
39.155313748,3941.0
39.165161460,4046.0
39.175009172,4023.0
39.184856884,3984.0
39.194704597,3968.0
39.204552309,4094.0
39.214400021,3845.0
39.224247733,3939.0
39.234095445,3982.0
39.243943157,4042.0
39.253790869,4021.0
39.263638581,4017.0
39.273486293,3965.0
39.283334005,3940.0
39.293181717,3863.0
39.303029429,3810.0
39.312877141,3894.0
39.322724853,3833.0
39.332572565,3897.0
39.342420277,3946.0
39.352267989,3924.0
39.362115701,3914.0
39.371963413,3962.0
39.381811125,3874.0
39.391658837,4034.0
39.401506549,3959.0
39.411354261,3814.0
39.421201973,3840.0
39.431049685,3890.0
39.440897397,4014.0
39.450745109,3931.0
39.460592821,3862.0
39.470440533,3939.0
39.480288245,3765.0
39.490135957,3819.0
39.499983669,3885.0
39.509831381,3962.0
39.519679093,3902.0
39.529526805,3892.0
39.539374517,3833.0
39.549222229,3777.0
39.559069941,3825.0
39.568917654,3890.0
39.578765366,3752.0
39.588613078,3825.0
39.598460790,3795.0
39.608308502,3878.0
39.618156214,3872.0
39.628003926,3800.0
39.637851638,3755.0
39.647699350,3817.0
39.657547062,3899.0
39.667394774,3792.0
39.677242486,3851.0
39.687090198,3756.0
39.696937910,3815.0
39.706785622,3744.0
39.716633334,3951.0
39.726481046,3832.0
39.736328758,3888.0
39.746176470,3757.0
39.756024182,3782.0
39.765871894,3748.0
39.775719606,3891.0
39.785567318,3796.0
39.795415030,3809.0
39.805262742,3794.0
39.815110454,3796.0
39.824958166,3883.0
39.834805878,3754.0
39.844653590,3751.0
39.854501302,3824.0
39.864349014,3654.0
39.874196726,3755.0
39.884044438,3642.0
39.893892150,3746.0
39.903739862,3872.0
39.913587574,3750.0
39.923435286,3593.0
39.933282998,3642.0
39.943130711,3844.0
39.952978423,3746.0
39.962826135,3695.0
39.972673847,3698.0
39.982521559,3735.0
39.992369271,3765.0
40.002216983,3668.0
40.012064695,3517.0
40.021912407,3738.0
40.031760119,3737.0
40.041607831,3717.0
40.051455543,3748.0
40.061303255,3639.0
40.071150967,3719.0
40.080998679,3620.0
40.090846391,3661.0
40.100694103,3673.0
40.110541815,3663.0
40.120389527,3552.0
40.130237239,3676.0
40.140084951,3724.0
40.149932663,3640.0
40.159780375,3545.0
40.169628087,3660.0
40.179475799,3582.0
40.189323511,3459.0
40.199171223,3553.0
40.209018935,3630.0
40.218866647,3611.0
40.228714359,3687.0
40.238562071,3581.0
40.248409783,3635.0
40.258257495,3661.0
40.268105207,3680.0
40.277952919,3646.0
40.287800631,3742.0
40.297648343,3505.0
40.307496055,3524.0
40.317343768,3570.0
40.327191480,3559.0
40.337039192,3669.0
40.346886904,3547.0
40.356734616,3523.0
40.366582328,3591.0
40.376430040,3577.0
40.386277752,3503.0
40.396125464,3515.0
40.405973176,3479.0
40.415820888,3587.0
40.425668600,3503.0
40.435516312,3530.0
40.445364024,3681.0
40.455211736,3501.0
40.465059448,3664.0
40.474907160,3620.0
40.484754872,3553.0
40.494602584,3483.0
40.504450296,3446.0
40.514298008,3590.0
40.524145720,3584.0
40.533993432,3638.0
40.543841144,3490.0
40.553688856,3476.0
40.563536568,3422.0
40.573384280,3572.0
40.583231992,3621.0
40.593079704,3444.0
40.602927416,3560.0
40.612775128,3566.0
40.622622840,3623.0
40.632470552,3621.0
40.642318264,3504.0
40.652165976,3537.0
40.662013688,3527.0
40.671861400,3596.0
40.681709112,3524.0
40.691556825,3522.0
40.701404537,3419.0
40.711252249,3393.0
40.721099961,3479.0
40.730947673,3502.0
40.740795385,3515.0
40.750643097,3469.0
40.760490809,3570.0
40.770338521,3501.0
40.780186233,3357.0
40.790033945,3410.0
40.799881657,3465.0
40.809729369,3466.0
40.819577081,3451.0
40.829424793,3365.0
40.839272505,3442.0
40.849120217,3439.0
40.858967929,3429.0
40.868815641,3428.0
40.878663353,3493.0
40.888511065,3505.0
40.898358777,3557.0
40.908206489,3614.0
40.918054201,3393.0
40.927901913,3390.0
40.937749625,3433.0
40.947597337,3438.0
40.957445049,3412.0
40.967292761,3362.0
40.977140473,3469.0
40.986988185,3377.0
40.996835897,3391.0
41.006683609,3438.0
41.016531321,3457.0
41.026379033,3418.0
41.036226745,3434.0
41.046074457,3373.0
41.055922169,3323.0
41.065769882,3282.0
41.075617594,3279.0
41.085465306,3452.0
41.095313018,3373.0
41.105160730,3382.0
41.115008442,3407.0
41.124856154,3341.0
41.134703866,3416.0
41.144551578,3413.0
41.154399290,3356.0
41.164247002,3381.0
41.174094714,3370.0
41.183942426,3331.0
41.193790138,3496.0
41.203637850,3541.0
41.213485562,3367.0
41.223333274,3454.0
41.233180986,3303.0
41.243028698,3344.0
41.252876410,3377.0
41.262724122,3340.0
41.272571834,3353.0
41.282419546,3370.0
41.292267258,3267.0
41.302114970,3306.0
41.311962682,3344.0
41.321810394,3288.0
41.331658106,3367.0
41.341505818,3355.0
41.351353530,3419.0
41.361201242,3320.0
41.371048954,3247.0
41.380896666,3281.0
41.390744378,3281.0
41.400592090,3369.0
41.410439802,3486.0
41.420287514,3340.0
41.430135226,3335.0
41.439982939,3307.0
41.449830651,3295.0
41.459678363,3214.0
41.469526075,3208.0
41.479373787,3243.0
41.489221499,3143.0
41.499069211,3168.0
41.508916923,3275.0
41.518764635,3311.0
41.528612347,3309.0
41.538460059,3284.0
41.548307771,3322.0
41.558155483,3307.0
41.568003195,3183.0
41.577850907,3247.0
41.587698619,3288.0
41.597546331,3129.0
41.607394043,3240.0
41.617241755,3123.0
41.627089467,3301.0
41.636937179,3246.0
41.646784891,3325.0
41.656632603,3273.0
41.666480315,3238.0
41.676328027,3298.0
41.686175739,3242.0
41.696023451,3322.0
41.705871163,3265.0
41.715718875,3209.0
41.725566587,3200.0
41.735414299,3148.0
41.745262011,3242.0
41.755109723,3144.0
41.764957435,3232.0
41.774805147,3143.0
41.784652859,3181.0
41.794500571,3210.0
41.804348283,3078.0
41.814195996,3279.0
41.824043708,3061.0
41.833891420,3172.0
41.843739132,3168.0
41.853586844,3258.0
41.863434556,3172.0
41.873282268,3196.0
41.883129980,3206.0
41.892977692,3128.0
41.902825404,3097.0
41.912673116,3123.0
41.922520828,3165.0
41.932368540,3120.0
41.942216252,3236.0
41.952063964,3218.0
41.961911676,3258.0
41.971759388,3226.0
41.981607100,3132.0
41.991454812,3198.0
42.001302524,3086.0
42.011150236,3141.0
42.020997948,3168.0
42.030845660,3055.0
42.040693372,3142.0
42.050541084,3022.0
42.060388796,3103.0
42.070236508,3141.0
42.080084220,3092.0
42.089931932,3098.0
42.099779644,3156.0
42.109627356,3039.0
42.119475068,3114.0
42.129322780,3138.0
42.139170492,3000.0
42.149018204,3149.0
42.158865916,3052.0
42.168713628,3047.0
42.178561340,3036.0
42.188409053,3001.0
42.198256765,3180.0
42.208104477,3075.0
42.217952189,3088.0
42.227799901,3145.0
42.237647613,3132.0
42.247495325,3011.0
42.257343037,3141.0
42.267190749,3099.0
42.277038461,3047.0
42.286886173,3093.0
42.296733885,3106.0
42.306581597,3063.0
42.316429309,2890.0
42.326277021,3004.0
42.336124733,3168.0
42.345972445,3018.0
42.355820157,3036.0
42.365667869,2953.0
42.375515581,2958.0
42.385363293,3084.0
42.395211005,3115.0
42.405058717,3053.0
42.414906429,3015.0
42.424754141,3050.0
42.434601853,2956.0
42.444449565,3165.0
42.454297277,3043.0
42.464144989,3035.0
42.473992701,3158.0
42.483840413,3055.0
42.493688125,3022.0
42.503535837,3090.0
42.513383549,3003.0
42.523231261,2900.0
42.533078973,3008.0
42.542926685,2994.0
42.552774397,3018.0
42.562622110,3075.0
42.572469822,3065.0
42.582317534,2966.0
42.592165246,2982.0
42.602012958,2937.0
42.611860670,2880.0
42.621708382,2949.0
42.631556094,3017.0
42.641403806,2955.0
42.651251518,2893.0
42.661099230,3061.0
42.670946942,3098.0
42.680794654,3024.0
42.690642366,2924.0
42.700490078,3009.0
42.710337790,2957.0
42.720185502,2928.0
42.730033214,2940.0
42.739880926,3004.0
42.749728638,2842.0
42.759576350,2955.0
42.769424062,2961.0
42.779271774,2860.0
42.789119486,2948.0
42.798967198,2966.0
42.808814910,2855.0
42.818662622,2958.0
42.828510334,3024.0
42.838358046,3040.0
42.848205758,3004.0
42.858053470,2900.0
42.867901182,2866.0
42.877748894,2928.0
42.887596606,2953.0
42.897444318,3031.0
42.907292030,2969.0
42.917139742,2906.0
42.926987454,2892.0
42.936835167,2857.0
42.946682879,2883.0
42.956530591,2899.0
42.966378303,3063.0
42.976226015,2894.0
42.986073727,2807.0
42.995921439,2968.0
43.005769151,2999.0
43.015616863,2874.0
43.025464575,2839.0
43.035312287,3011.0
43.045159999,2865.0
43.055007711,2930.0
43.064855423,2886.0
43.074703135,2968.0
43.084550847,2909.0
43.094398559,2924.0
43.104246271,2829.0
43.114093983,2896.0
43.123941695,2935.0
43.133789407,2874.0
43.143637119,2816.0
43.153484831,2871.0
43.163332543,2835.0
43.173180255,2887.0
43.183027967,2949.0
43.192875679,2815.0
43.202723391,2898.0
43.212571103,2825.0
43.222418815,2842.0
43.232266527,2814.0
43.242114239,2802.0
43.251961951,2865.0
43.261809663,2821.0
43.271657375,2802.0
43.281505087,2886.0
43.291352799,2811.0
43.301200511,2977.0
43.311048224,2831.0
43.320895936,2849.0
43.330743648,2906.0
43.340591360,2869.0
43.350439072,2825.0
43.360286784,2842.0
43.370134496,2832.0
43.379982208,2821.0
43.389829920,2822.0
43.399677632,2808.0
43.409525344,2926.0
43.419373056,2956.0
43.429220768,2847.0
43.439068480,2784.0
43.448916192,2753.0
43.458763904,2869.0
43.468611616,2809.0
43.478459328,2857.0
43.488307040,2855.0
43.498154752,2826.0
43.508002464,2766.0
43.517850176,2890.0
43.527697888,2776.0
43.537545600,2743.0
43.547393312,2768.0
43.557241024,2818.0
43.567088736,2759.0
43.576936448,2755.0
43.586784160,2809.0
43.596631872,2775.0
43.606479584,2744.0
43.616327296,2799.0
43.626175008,2814.0
43.636022720,2845.0
43.645870432,2769.0
43.655718144,2743.0
43.665565856,2779.0
43.675413568,2742.0
43.685261281,2793.0
43.695108993,2740.0
43.704956705,2772.0
43.714804417,2745.0
43.724652129,2801.0
43.734499841,2856.0
43.744347553,2771.0
43.754195265,2638.0
43.764042977,2710.0
43.773890689,2800.0
43.783738401,2781.0
43.793586113,2724.0
43.803433825,2771.0
43.813281537,2763.0
43.823129249,2719.0
43.832976961,2831.0
43.842824673,2797.0
43.852672385,2875.0
43.862520097,2759.0
43.872367809,2712.0
43.882215521,2764.0
43.892063233,2806.0
43.901910945,2736.0
43.911758657,2685.0
43.921606369,2768.0
43.931454081,2791.0
43.941301793,2747.0
43.951149505,2730.0
43.960997217,2760.0
43.970844929,2852.0
43.980692641,2809.0
43.990540353,2737.0
44.000388065,2695.0
44.010235777,2769.0
44.020083489,2732.0
44.029931201,2824.0
44.039778913,2747.0
44.049626625,2741.0
44.059474338,2702.0
44.069322050,2762.0
44.079169762,2759.0
44.089017474,2755.0
44.098865186,2737.0
44.108712898,2808.0
44.118560610,2808.0
44.128408322,2798.0
44.138256034,2785.0
44.148103746,2773.0
44.157951458,2895.0
44.167799170,2819.0
44.177646882,2781.0
44.187494594,2866.0
44.197342306,2807.0
44.207190018,2811.0
44.217037730,2878.0
44.226885442,2833.0
44.236733154,2916.0
44.246580866,2842.0
44.256428578,2969.0
44.266276290,2878.0
44.276124002,2993.0
44.285971714,2935.0
44.295819426,2987.0
44.305667138,2943.0
44.315514850,2948.0
44.325362562,2938.0
44.335210274,2925.0
44.345057986,2900.0
44.354905698,2938.0
44.364753410,2926.0
44.374601122,2953.0
44.384448834,2995.0
44.394296546,2896.0
44.404144258,2787.0
44.413991970,2875.0
44.423839682,2886.0
44.433687395,2888.0
44.443535107,2899.0
44.453382819,2821.0
44.463230531,2778.0
44.473078243,2824.0
44.482925955,2849.0
44.492773667,2901.0
44.502621379,2792.0
44.512469091,2866.0
44.522316803,2765.0
44.532164515,2832.0
44.542012227,2837.0
44.551859939,2828.0
44.561707651,2751.0
44.571555363,2780.0
44.581403075,2724.0
44.591250787,2544.0
44.601098499,2550.0
44.610946211,2674.0
44.620793923,2626.0
44.630641635,2728.0
44.640489347,2600.0
44.650337059,2691.0
44.660184771,2608.0
44.670032483,2532.0
44.679880195,2616.0
44.689727907,2658.0
44.699575619,2595.0
44.709423331,2627.0
44.719271043,2609.0
44.729118755,2609.0
44.738966467,2613.0
44.748814179,2597.0
44.758661891,2677.0
44.768509603,2546.0
44.778357315,2638.0
44.788205027,2573.0
44.798052739,2656.0
44.807900452,2596.0
44.817748164,2559.0
44.827595876,2568.0
44.837443588,2527.0
44.847291300,2574.0
44.857139012,2575.0
44.866986724,2538.0
44.876834436,2632.0
44.886682148,2618.0
44.896529860,2564.0
44.906377572,2524.0
44.916225284,2596.0
44.926072996,2560.0
44.935920708,2465.0
44.945768420,2565.0
44.955616132,2618.0
44.965463844,2596.0
44.975311556,2558.0
44.985159268,2588.0
44.995006980,2516.0
